# columns match size in bytes then (ins/byte, branch miss /kb, GB/s)# the validators are memcpy, branchy, dfa, lookup3
# number of repetitions 1000 
1025             0.327     1.951   34.167       10.883     3.902    0.993        7.255     2.927    1.624        1.393     1.951    9.318
1677             0.239     1.193   55.900       10.838     5.367    0.985        7.162     1.789    1.643        1.306     1.193    9.865
2328             0.199     1.289   58.200       10.688     3.866    0.997        7.116     1.289    1.660        1.245     1.289   10.582
2979             0.182     0.671   59.580       10.758    17.456    0.867        7.084     1.007    1.671        1.211     1.007   10.639
3632             0.167     0.826   60.533       10.724    14.593    0.904        7.072     0.826    1.671        1.189     0.826   11.350
4284             0.157     0.467   71.400       10.753    17.974    0.878        7.063     0.700    1.677        1.174     0.700   11.274
4934             0.150     0.405   70.486       10.712    20.470    0.869        7.056     0.608    1.681        1.178     0.608   11.474
5586             0.144     0.358   69.825       10.670    27.032    0.841        7.048     0.537    1.679        1.167     0.537   11.377
6239             0.139     0.321   69.322       10.729    37.346    0.783        7.043     0.481    1.683        1.159     0.481   11.532
6889             0.135     0.290   86.112       10.781    35.999    0.790        7.040     0.435    1.681        1.153     0.435   11.657
7542             0.132     0.265   75.420       10.655    42.827    0.764        7.033     0.398    1.684        1.147     0.398   11.766
8194             0.130     0.244   81.940       10.703    56.749    0.709        7.031     0.366    1.686        1.152     0.366   11.858
8845             0.128     0.339   68.038       10.645    64.217    0.689        7.029     0.339    1.685        1.147     0.339   11.937
9496             0.127     0.211   67.829       10.736    68.450    0.671        7.027     0.316    1.687        1.143     0.316   12.005
10148             0.125     0.197   67.653       10.711    80.410    0.642        7.027     0.296    1.685        1.139     0.296   11.925
10799             0.124     0.185   67.494       10.709    87.508    0.619        7.024     0.278    1.687        1.136     0.278   12.120
11452             0.122     0.175   81.800       10.641    95.704    0.596        7.024     0.262    1.686        1.134     0.262   12.170
12103             0.121     0.248   75.644       10.685   106.172    0.576        7.021     0.248    1.685        1.137     0.248   12.091
12754             0.120     0.235   67.126       10.694   120.119    0.543        7.021     0.235    1.686        1.135     0.235   12.124
13406             0.119     0.224   67.030       10.724   135.238    0.522        7.019     0.224    1.688        1.132     0.224   12.056
14058             0.118     0.213   66.943       10.670   148.385    0.497        7.019     0.213    1.687        1.130     0.213   12.203
14709             0.117     0.204   56.573       10.675   168.128    0.473        7.017     0.204    1.690        1.129     0.204   12.136
15362             0.117     0.195   56.896       10.725   166.710    0.473        7.018     0.195    1.687        1.132     0.195   12.173
16013             0.116     0.187   51.655       10.722   189.096    0.440        7.017     0.187    1.688        1.130     0.187   12.205
16665             0.115     0.180   49.015       10.698   197.900    0.433        7.015     0.180    1.689        1.128     0.180   12.236
17315             0.115     0.173   52.470       10.717   205.256    0.427        7.015     0.173    1.688        1.127     0.173   12.341
17967             0.115     0.167   51.334       10.669   221.462    0.406        7.014     0.167    1.689        1.126     0.167   12.281
18620             0.114     0.161   51.722       10.670   234.103    0.396        7.015     0.161    1.687        1.124     0.161   12.307
19271             0.114     0.156   50.713       10.685   239.116    0.391        7.014     0.156    1.689        1.127     0.156   12.259
19922             0.113     0.151   50.951       10.704   243.249    0.386        7.013     0.151    1.688        1.126     0.151   12.351
20575             0.113     0.146   51.438       10.680   254.727    0.377        7.012     0.146    1.689        1.124     0.146   12.298
21225             0.113     0.141   51.768       10.676   253.145    0.378        7.012     0.141    1.689        1.123     0.141   12.319
21877             0.112     0.137   49.720       10.681   262.970    0.370        7.012     0.137    1.688        1.122     0.137   12.339
22529             0.112     0.133   50.064       10.706   263.971    0.368        7.012     0.133    1.688        1.122     0.133   12.426
23180             0.111     0.129   51.511       10.658   277.955    0.358        7.011     0.129    1.688        1.124     0.129   12.369
23833             0.111     0.126   51.811       10.674   275.039    0.361        7.011     0.126    1.688        1.123     0.126   12.330
24483             0.111     0.123   49.965       10.681   279.949    0.356        7.010     0.123    1.688        1.122     0.123   12.409
25135             0.111     0.119   51.296       10.634   290.233    0.349        7.011     0.119    1.687        1.121     0.119   12.364
25787             0.111     0.116   51.471       10.680   289.914    0.348        7.010     0.116    1.689        1.120     0.116   12.439
26438             0.110     0.113   49.789       10.674   293.668    0.348        7.010     0.113    1.687        1.122     0.113   12.389
27090             0.110     0.111   52.096       10.663   293.023    0.345        7.010     0.111    1.687        1.121     0.111   12.347
27742             0.110     0.108   51.279       10.664   293.995    0.346        7.009     0.108    1.687        1.121     0.108   12.413
28393             0.110     0.106   50.611       10.684   297.890    0.342        7.009     0.106    1.688        1.120     0.106   12.377
29045             0.110     0.103   51.774       10.642   300.671    0.341        7.009     0.103    1.687        1.119     0.103   12.439
29698             0.109     0.101   52.011       10.681   301.266    0.341        7.009     0.101    1.687        1.121     0.101   12.400
30348             0.109     0.099   52.234       10.654   304.831    0.338        7.008     0.099    1.687        1.120     0.099   12.412
31000             0.109     0.097   52.453       10.650   312.065    0.334        7.009     0.097    1.687        1.120     0.097   12.425
31651             0.109     0.095   51.802       10.671   306.657    0.336        7.009     0.095    1.688        1.119     0.095   12.441
32303             0.109     0.093   52.018       10.673   309.073    0.335        7.008     0.093    1.687        1.118     0.093   12.453
32955             0.109     0.061   53.068       10.690   306.721    0.337        7.008     0.091    1.687        1.118     0.091   12.417
33606             0.109     0.089   52.427       10.631   312.266    0.333        7.008     0.089    1.686        1.119     0.089   12.424
34259             0.108     0.088   52.625       10.652   314.954    0.331        7.008     0.088    1.688        1.119     0.088   12.435
34910             0.108     0.086   52.027       10.713   309.625    0.334        7.007     0.086    1.687        1.118     0.086   12.446
35562             0.108     0.084   52.220       10.692   313.846    0.332        7.007     0.084    1.688        1.118     0.084   12.500
36213             0.108     0.083   52.407       10.661   315.936    0.331        7.008     0.083    1.689        1.117     0.083   12.466
36866             0.108     0.081   52.591       10.673   317.555    0.330        7.007     0.081    1.688        1.119     0.081   12.476
37516             0.108     0.080   52.765       10.707   316.985    0.330        7.007     0.080    1.689        1.118     0.080   12.443
38168             0.108     0.079   52.938       10.711   314.583    0.332        7.007     0.079    1.688        1.118     0.079   12.494
38819             0.108     0.077   52.387       10.684   318.349    0.329        7.007     0.077    1.688        1.117     0.077   12.498
39471             0.108     0.076   52.558       10.627   319.475    0.329        7.006     0.076    1.689        1.117     0.076   12.467
40123             0.107     0.075   52.724       10.679   317.848    0.329        7.006     0.075    1.687        1.116     0.075   12.515
40774             0.107     0.074   52.885       10.653   321.136    0.328        7.007     0.074    1.689        1.118     0.074   12.523
41427             0.107     0.072   52.373       10.643   319.140    0.329        7.006     0.072    1.689        1.117     0.072   12.493
42078             0.107     0.071   52.532       10.670   319.264    0.328        7.006     0.071    1.689        1.117     0.071   12.464
42729             0.107     0.070   52.687       10.674   320.251    0.328        7.006     0.070    1.688        1.116     0.070   12.508
43382             0.107     0.069   50.978       10.647   325.250    0.324        7.006     0.069    1.687        1.116     0.069   12.480
44034             0.107     0.068   52.989       10.687   322.319    0.326        7.006     0.068    1.689        1.117     0.068   12.453
44685             0.107     0.067   52.509       10.654   321.786    0.326        7.006     0.067    1.689        1.117     0.067   12.563
45336             0.107     0.066   52.655       10.683   324.356    0.324        7.006     0.066    1.688        1.116     0.066   12.500
45987             0.107     0.065   52.798       10.691   325.809    0.323        7.005     0.065    1.689        1.116     0.065   12.510
46639             0.107     0.064   44.802       10.676   323.871    0.326        7.006     0.064    1.689        1.116     0.064   12.480
47291             0.107     0.063   53.076       10.672   325.918    0.325        7.006     0.063    1.689        1.115     0.063   12.521
47942             0.107     0.063   53.151       10.679   326.520    0.324        7.006     0.063    1.689        1.116     0.063   12.527
48595             0.106     0.062   52.197       10.677   329.952    0.322        7.005     0.062    1.689        1.116     0.062   12.534
49246             0.106     0.061   52.896       10.704   324.331    0.326        7.005     0.061    1.689        1.116     0.061   12.509
49897             0.106     0.060   53.026       10.648   327.495    0.324        7.005     0.060    1.689        1.115     0.060   12.578
50549             0.106     0.059   48.050       10.664   326.198    0.324        7.005     0.059    1.690        1.115     0.059   12.490
51201             0.106     0.059   53.279       10.691   326.068    0.325        7.005     0.059    1.689        1.115     0.059   12.558
51852             0.106     0.058   52.323       10.648   329.033    0.322        7.005     0.058    1.689        1.116     0.058   12.503
52505             0.106     0.057   52.453       10.668   328.064    0.323        7.005     0.057    1.690        1.115     0.057   12.540
53155             0.106     0.056   53.102       10.674   325.783    0.324        7.005     0.056    1.690        1.115     0.056   12.513
53807             0.106     0.056   51.147       10.659   326.816    0.323        7.005     0.056    1.690        1.115     0.056   12.519
54459             0.106     0.055   52.822       10.637   326.392    0.324        7.005     0.055    1.690        1.114     0.055   12.525
55111             0.106     0.054   52.940       10.691   327.067    0.323        7.005     0.054    1.688        1.116     0.054   12.531
55762             0.106     0.054   52.507       10.688   327.266    0.323        7.005     0.054    1.690        1.115     0.054   12.534
56415             0.106     0.053   53.172       10.649   329.841    0.322        7.005     0.053    1.690        1.115     0.053   12.514
57066             0.106     0.053   53.233       10.645   329.934    0.322        7.005     0.053    1.690        1.115     0.053   12.547
57717             0.106     0.052   51.441       10.663   329.799    0.322        7.004     0.052    1.690        1.114     0.052   12.553
58370             0.106     0.051   52.967       10.651   332.345    0.320        7.004     0.051    1.688        1.115     0.051   12.528
59020             0.105     0.051   47.906       10.676   326.771    0.323        7.004     0.051    1.690        1.115     0.051   12.533
59672             0.105     0.050   52.252       10.670   326.770    0.322        7.004     0.050    1.691        1.115     0.050   12.515
60323             0.106     0.050   53.289       10.682   325.730    0.323        7.004     0.050    1.690        1.114     0.050   12.570
60975             0.105     0.049   51.586       10.670   323.657    0.325        7.004     0.049    1.691        1.114     0.049   12.523
61628             0.105     0.049   53.036       10.691   327.822    0.323        7.004     0.049    1.689        1.114     0.049   12.580
62278             0.105     0.048   53.138       10.658   329.651    0.322        7.004     0.048    1.691        1.115     0.048   12.559
62930             0.105     0.048   45.867       10.656   329.398    0.323        7.004     0.048    1.691        1.114     0.048   12.563
63583             0.105     0.047   53.341       10.685   328.877    0.322        7.004     0.047    1.691        1.114     0.047   12.543
64234             0.105     0.047   52.998       10.678   327.537    0.323        7.004     0.047    1.690        1.114     0.047   12.548
64885             0.105     0.046   51.414       10.659   330.045    0.322        7.004     0.046    1.690        1.114     0.046   12.575
65538             0.105     0.046   51.122       10.693   325.231    0.325        7.004     0.046    1.691        1.115     0.046   12.534
